<x4x8x|0
0
2
47
124
229
345
460
556
619
640
622
564
475
368
258
159
85
43
36
64
125
217
327
434
523
580
602
584
532
453
362
273
197
140
105
97
113
153
214
290
371
445
503
539
550
538
503
451
388
320
255
202
167
157
172
204
248
295
342
382
411
425
425
412
385
350
313
278
252
239
239
249
268
287
303
315
324
331
336
335
328
316
298
277
256
238
224
217
221
233
252
275
299
321
339
353
360
358
348
333
314
293
272
253
238
228
225
229
240
257
278
302
323
342
356
363
362
356
345
330
312
291
269
248
232
223
223
232
251
276
303
329
351
364
365
351
325
290
251
215
184
163
155
162
183
218
261
307
350
386
409
417
405
377
334
284
234
191
160
146
150
171
204
243
282
321
354
378
392
392
381
357
325
289
251
216
189
172
172
189
222
261
303
342
374
393
397
388
366
331
288
244
206
178
162
162
179
208
247
293
340
381
413
434
439
428
404
368
324
275
232
201
186
187
198
220
250
284
316
341
356
359
351
334
308
276
244
216
197
187
188
200
222
252
285
318
348
370
381
381
370
349
320
288
256
229
208
196
195
205
224
250
281
312
339
362
377
385
384
373
353
331
307
283
259
239
224
214
210
212
223
241
265
293
321
344
359
362
355
339
315
288
262
240
226
221
226
240
263
289
314
338
357
369
371
364
348
324
295
267
242
224
216
219
231
253
282
314
345
370
389
400
405
405
397
380
357
330
302
279
263
252
250
260
280
311
350
390
429
465
491
499
485
449
391
315
229
146
76
30
11
22
64
129
217
317
422
523
612
650
651
650
648
641
619
585
541
487
426
363
303
243
183
120
60
17
3
24
82
173
288
408
517
594
629
624
586
524
446
358
266
171
88
27
0
0
24
78
153
245
341
434
513
567
594
594
573
532
476
408
334
259
185
115
63
38
44
81
147
242
349
455
543
604
631
621
574
496
399
299
213
157
144
176
249
350
457
540
584
588
552
483
392
287
185
100
45
29
53
115
208
318
432
534
608
645
643
607
538
444
340
241
159
103
79
89
127
192
279
376
475
561
625
648
643
612
555
479
393
300
208
132
83
73
107
186
298
431
558
649
651
649
637
582
494
387
275
171
88
42
36
70
140
242
361
484
591
650
650
643
597
521
425
318
214
123
56
20
22
61
132
233
347
460
558
630
649
646
613
547
456
352
251
166
109
85
96
136
205
291
385
477
553
604
625
614
572
505
422
333
248
181
140
130
151
198
266
346
431
507
564
597
600
576
526
457
379
300
230
180
155
158
190
245
314
390
465
529
570
584
571
532
472
401
326
257
204
174
170
191
237
300
372
447
514
562
583
575
541
485
416
340
265
200
153
130
133
163
216
287
367
446
516
567
594
594
566
515
447
370
292
221
166
136
137
169
227
302
385
464
530
574
591
581
546
489
419
342
268
202
153
125
122
146
193
258
334
410
475
521
543
537
506
454
389
318
250
195
160
147
158
189
239
303
371
438
494
531
542
526
486
428
358
286
221
172
142
136
157
203
268
344
419
483
529
549
541
506
451
382
309
241
187
153
143
158
196
254
324
397
463
515
546
552
533
492
436
370
303
243
195
166
160
179
221
282
353
425
485
522
533
519
483
432
371
307
245
195
165
160
181
224
284
354
422
483
529
557
562
545
508
455
393
331
276
239
226
239
278
337
406
474
532
572
585
570
527
458
375
286
205
143
111
118
160
231
318
413
502
570
610
621
605
569
516
451
376
296
222
166
138
142
179
247
337
438
538
627
651
651
650
647
631
596
541
464
370
274
190
125
88
87
120
185
270
363
453
526
574
593
571
510
431
349
267
200
148
112
100
116
161
235
320
398
464
510
532
532
516
494
465
434
405
369
327
284
242
202
170
154
160
191
243
318
407
495
562
596
595
559
487
388
277
161
54
0
0
0
28
97
199
329
481
633
652
652
650
625
531
388
224
60
0
0
0
0
0
0
32
114
247
417
611
653
652
652
649
620
539
438
334
240
169
137
158
230
326
421
494
536
544
520
467
391
305
213
126
64
32
31
59
103
164
245
346
452
542
604
630
621
580
512
424
328
233
153
97
68
69
103
175
279
401
531
646
651
651
643
585
492
378
265
155
58
0
0
0
14
66
153
281
430
576
651
652
652
650
641
584
491
373
248
142
79
78
140
267
424
584
652
652
648
599
493
355
201
55
0
0
0
0
22
90
199
343
506
649
652
652
650
639
577
478
359
236
126
55
36
75
166
301
456
609
651
650
631
540
405
251
104
0
0
0
0
25
79
151
236
322
403
479
543
581
595
589
569
532
480
418
341
254
181
133
103
83
79
108
190
320
469
606
652
652
651
650
644
599
517
410
290
167
54
0
0
0
40
94
139
177
210
241
276
311
338
358
380
405
421
432
438
427
408
389
367
346
329
327
345
364
373
379
383
374
347
301
241
173
102
47
29
50
114
216
339
476
612
652
652
652
651
642
564
432
259
80
0
0
0
26
121
265
439
608
652
651
647
600
508
391
267
152
65
20
20
54
96
150
221
301
379
438
461
454
423
368
300
237
188
173
205
273
358
445
517
569
597
583
519
403
251
86
0
0
0
0
5
82
223
400
583
652
652
651
648
597
497
379
270
205
199
251
344
461
581
650
650
638
565
441
277
96
0
0
0
0
0
43
133
254
384
505
582
596
549
451
324
196
89
26
17
60
147
265
379
466
513
521
497
451
384
298
209
146
126
150
219
323
426
506
550
556
527
464
372
275
201
163
173
227
302
382
457
507
526
509
465
397
305
203
114
58
45
78
156
272
397
499
564
581
542
454
331
192
63
0
0
0
0
37
114
215
324
427
517
584
617
619
587
528
449
361
277
198
134
93
83
102
154
228
319
416
506
582
634
648
641
605
540
460
378
307
254
227
224
242
275
315
352
385
411
425
429
423
410
393
374
349
324
306
295
289
291
302
317
329
332
329
321
310
301
298
301
310
326
341
351
356
355
348
334
315
295
272
248
226
210
206
215
237
270
306
339
368
394
411
417
412
396
373
342
306
272
245
229
229
247
280
325
374
415
439
444
429
400
362
321
283
253
232
221
225
240
263
290
314
332
343
349
348
340
328
312
294
278
263
249
240
237
241
253
271
289
306
320
328
333
335
332
322
306
287
270
254
242
235
233
239
252
267
284
303
320
333
339
337
330
320
307
295
287
281
277
274
274
279
287
295
300
301
299
295
294
292
290
287
286
291
297
304
309
309
304
297
288
277
265
255
250
248
250
254
261
271
285
303
323
341
355
362
360
346
324
295
265
240
222
212
213
223
240
262
291
318
338
345
342
334
318
299
281
266
257
253
256
266
282
302
323
340
356
369
375
370
356
336
311
284
256
231
216
210
212
223
242
266
291
318
345
369
388
398
397
384
362
332
300
267
236
211
198
199
213
235
266
304
347
390
425
441
439
424
399
363
322
280
237
200
178
175
191
222
262
306
347
380
401
411
411
400
379
352
326
305
285
265
253
250
255
267
286
317
359
403
440
463
469
458
428
383
329
273
224
187
169
172
194
229
275
325
371
405
429
441
440
426
401
367
326
286
258
241
234
241
261
291
324
357
389
414
425
422
411
394
369
344
323
299
273
259
260
270
287
307
329
356
384
407
423
429
423
408
385
357
329
304
283
270
267
275
289
306
326
350
373
395
409
410
400
386
367
345
324
304
292
290
296
306
316
332
350
367
383
394
397
392
380
365
348
332
320
313
310
313
321
334
351
366
377
384
388
388
385
377
365
346
322
299
285
281
289
309
335
361
383
397
403
402
395
388
380
369
356
344
333
321
309
302
299
302
314
332
351
369
383
391
395
394
387
373
354
333
313
294
281
269
265
273
291
312
338
367
397
420
434
433
419
395
366
336
310
290
278
278
289
307
327
348
368
387
406
418
420
415
401
382
359
337
316
298
285
276
274
279
292
310
332
358
383
402
413
418
415
403
385
363
337
311
288
279
282
295
314
334
357
379
398
408
408
402
388
365
338
312
291
278
276
284
303
328
354
380
404
423
434
435
424
403
375
344
314
290
273
266
269
283
306
332
360
387
408
422
427
423
408
386
358
328
302
284
276
280
296
320
352
386
418
441
454
451
432
398
355
310
268
236
217
214
226
253
291
337
386
430
464
484
487
472
441
399
352
306
269
246
240
249
272
306
346
388
428
460
479
480
464
436
399
357
315
277
250
235
234
250
278
317
362
406
442
467
479
480
467
442
408
367
322
279
243
221
212
219
239
271
311
356
401
439
464
473
467
447
414
374
330
289
257
239
237
254
286
328
374
419
455
479
486

175
293
426
555
649
651
650
642
591
506
402
291
185
98
37
7
13
57
132
234
350
462
557
622
646
634
587
512
417
313
212
133
83
68
85
130
200
284
367
439
491
522
532
517
480
432
372
304
241
191
162
162
197
267
360
459
553
635
651
650
647
615
543
439
319
196
86
4
0
0
3
40
99
174
258
343
420
480
515
517
490
436
367
293
226
175
152
157
191
248
321
400
475
531
559
555
518
461
398
347
320
323
359
420
491
553
582
569
512
414
286
155
45
0
0
0
27
87
169
265
360
439
498
541
577
607
621
610
571
496
391
264
123
0
0
0
0
1
58
152
274
409
534
623
649
637
571
467
352
251
173
128
124
172
274
400
513
584
597
553
457
320
159
0
0
0
0
0
3
58
156
290
444
593
651
652
650
647
607
520
386
214
35
0
0
0
0
16
88
201
342
495
640
652
652
651
647
587
472
324
160
8
0
0
0
47
145
276
427
576
651
652
650
632
552
427
278
132
16
0
0
22
102
227
364
488
572
603
579
507
398
272
160
92
87
134
220
323
428
507
548
548
503
408
263
93
0
0
0
0
0
11
77
190
344
523
651
652
652
650
630
554
430
278
114
0
0
0
0
0
56
157
308
482
628
651
649
607
495
341
175
14
0
0
0
0
24
117
256
416
584
652
652
651
644
605
539
456
361
253
137
19
0
0
0
0
0
32
123
264
431
606
652
652
651
630
540
402
238
77
0
0
0
12
81
188
311
426
514
555
548
513
454
368
264
163
80
23
0
8
50
126
226
340
452
548
614
635
612
551
466
368
273
192
135
110
125
172
252
343
419
481
538
596
640
647
625
568
485
385
275
164
69
3
0
0
56
161
311
486
642
652
650
610
481
292
68
0
0
0
0
0
0
0
10
70
182
330
489
635
652
651
642
565
439
284
119
0
0
0
0
24
99
223
386
562
652
653
652
651
649
636
584
502
399
272
123
0
0
0
0
0
0
32
108
212
327
444
536
583
582
543
481
418
374
369
420
516
623
651
649
589
446
258
54
0
0
0
0
0
10
77
171
278
369
433
471
486
486
463
418
368
314
265
226
189
150
115
90
89
113
161
218
273
330
379
418
448
473
500
532
560
575
575
558
528
484
417
324
207
77
0
0
0
0
6
51
119
207
309
420
526
606
641
628
566
465
343
223
139
103
118
184
271
354
423
458
451
403
321
219
115
29
0
0
6
53
140
268
414
556
651
652
651
647
600
513
409
306
205
116
51
28
58
140
271
435
603
652
650
620
511
356
186
17
0
0
0
0
14
85
189
310
432
537
611
637
621
568
475
350
205
61
0
0
0
0
34
123
267
453
650
653
653
652
649
586
445
267
82
0
0
0
0
0
19
68
139
222
318
428
546
645
651
651
648
618
550
446
311
168
37
0
0
0
39
124
234
346
446
525
580
603
591
552
485
404
314
213
123
60
37
55
104
178
272
375
469
536
571
570
536
478
414
358
303
246
195
167
173
212
274
351
433
497
543
567
549
479
362
213
70
0
0
0
0
65
170
308
470
642
652
651
648
590
475
325
160
5
0
0
0
0
0
30
87
159
244
338
429
503
551
568
567
563
560
552
538
510
453
356
227
85
0
0
0
0
61
168
312
457
577
648
649
639
601
541
460
361
261
183
143
155
210
302
426
558
647
649
616
506
343
147
0
0
0
0
0
28
120
259
410
547
638
649
628
560
463
352
234
124
29
0
0
0
27
87
179
294
425
561
651
652
651
650
647
621
551
437
287
124
0
0
0
0
67
182
321
448
543
601
620
603
557
496
436
385
349
335
348
369
377
367
338
287
228
180
161
166
184
210
244
294
352
408
451
475
473
444
394
339
287
239
200
178
177
190
214
244
284
332
380
422
463
505
545
576
580
544
476
389
295
206
120
46
0
0
4
48
122
218
329
446
557
645
651
651
649
624
556
453
335
226
144
103
105
143
213
301
390
469
530
570
580
563
532
497
465
441
409
357
285
192
92
3
0
0
0
18
64
135
242
368
491
589
645
648
626
565
474
363
253
164
110
100
136
216
324
445
561
650
652
651
650
649
641
608
554
489
409
304
186
66
0
0
0
0
11
50
106
180
259
336
401
470
561
649
652
652
652
652
649
588
448
253
39
0
0
0
0
8
72
176
307
438
546
618
646
631
564
460
328
184
64
0
0
32
127
272
439
598
652
651
650
630
559
448
322
213
140
118
151
229
350
486
602
650
650
632
564
461
348
235
134
73
58
78
127
199
280
349
403
444
473
485
478
447
404
364
333
316
301
282
262
241
220
206
205
221
249
285
334
391
445
482
490
472
440
399
353
321
312
335
393
449
468
447
394
320
241
178
148
159
215
312
433
556
645
650
633
556
424
263
95
0
0
0
0
38
124
240
360
469
547
574
551
491
405
303
206
129
76
52
62
108
186
286
393
493
571
617
624
590
520
422
309
205
123
78
74
108
175
268
377
489
577
627
634
602
538
448
346
249
172
124
111
133
179
240
312
383
443
483
503
500
474
426
364
298
233
182
149
138
149
181
233
304
380
454
507
533
530
499
449
388
326
270
223
191
174
173
189
221
262
313
369
424
469
498
509
502
478
435
377
313
249
191
145
120
118
140
185
247
322
398
461
504
522
513
479
427
362
296
236
188
156
141
147
172
216
273
341
410
470
513
536
536
515
472
408
328
239
155
94
64
69
105
170
254
343
425
488
522
525
497
445
375
299
228
171
136
125
139
171
216
269
325
375
417
443
450
441
416
379
334
285
236
198
171
160
167
190
227
276
329
381
423
449
456
447
425
390
346
296
246
204
175
162
168
191
228
275
325
374
415
440
448
438
410
368
318
266
223
193
180
185
205
238
278
321
364
402
428
439
432
407
371
328
287
252
227
215
214
221
238
262
291
317
340
358
369
375
374
364
348
328
307
287
270
259
256
258
263
275
292
310
329
347
363
372
374
369
357
342
327
313
303
299
300
303
306
304
299
297
294
293
295
300
306
317
334
355
372
381
382
379
368
352
333
314
298
285
275
272
276
288
308
333
355
372
379
375
360
339
313
288
271
263
266
277
290
303
311
315
322
335
352
370
383
389
385
373
358
337
314
292
275
262
254
249
249
256
272
297
324
349
368
382
392
393
384
368
349
326
303
283
267
254
252
263
284
314
342
367
386
396
399
393
381
362
340
318
297
280
269
265
268
283
307
337
367
394
418
434
440
434
417
396
372
348
326
310
300
295
293
294
295
296
302
314
330
348
369
391
407
412
404
384
357
326
294
265
244
236
245
267
300
338
377
416
447
466
471
461
436
400
359
319
283
256
240
237
249
272
306
346
387
424
450
464
467
459
438
408
373
336
302
275
260
257
266
284
308
340
376
407
429
444
452
452
440
415
384
352
320
293
274
266
273
291
314
338
360
383
404
420
430
431
424
410
388
363
338
314
297
288
287
293
307
329
356
384
413
434
447
452
446
429
402
370
334
297
267
246
239
248
272
309
353
399
438
466
480
479
465
439
404
365
329
299
275
261
258
265
283
309
341
376
406
425
435
436
429
415
393
367
343
323
307
298
297
307
325
349
374
395
410
416
414
405
390
373
356
341
330
319
312
309
309
315
325
341
358
373
385
394
398
393
382
368
353
339
328
321
319
321
329
341
355
372
388
401
409
412
408
398
383
365
346
328
312
298
289
289
296
309
328
349
371
391
406
414
415
409
395
376
354
332
312
295
286
286
294
310
330
352
377
398
413
420
420
410
391
364
335
309
290
278
276
282
298
320
347
375
401
423
437
442
434
416
390
359
329
302
285
279
283
302
330
365
401
435
459
470
465
446
414
373
327
282
243
218
209
218
242
279
324
370
410
442
463
473
468
446
411
368
323
277
237
209
197
201
220
252
295
341
388
428
458
475
477
465
439
403
362
320
283
259
248
251
267
294
329
367
403
432
453
464
463
453
435
412
390
372
361
358
363
376
396
418
439
454
455
443
421
398
378
366
357
342
321
297
271
247
232
227
233
247
267
289
314
339
360
377
387
393
394
395
396
397
398
397
394
382
359
328
292
253
220
199
195
208
236
272
308
343
369
383
384
370
345
315
284
260
246
244
256
281
313
351
389
423
451
473
487
489
480
460
428
390
346
296
249
218
202
202
222
257
299
343
386
420
441
447
444
435
426
414
400
380
351
316
280
240
195
152
116
90
83
96
129
182
246
314
380
432
467
483
477
452
411
360
305
249
199
162
146
162
212
292
388
486
569
629
649
646
618
563
490
409
329
260
207
168
139
125
134
175
236
299
351
381
380
353
316
285
268
263
269
285
307
328
341
352
361
373
388
405
420
416
388
347
301
252
206
166
136
116
109
124
162
224
307
401
509
614
651
651
650
647
604
517
400
270
133
4
0
0
0
49
158
313
501
652
653
653
652
652
648
584
465
305
114
0
0
0
0
0
44
141
275
411
518
578
591
569
525
462
384
299
212
134
76
49
58
102
178
276
377
466
536
581
602
597
572
525
464
404
362
327
282
232
196
190
223
309
451
616
652
652
650
639
568
451
302
146
12
0
0
0
0
24
78
155
244
336
423
501
566
611
634
636
620
579
515
437
355
278
210
158
128
136
186
277
399
525
631
651
651
644
588
482
334
164
11
0
0
8
72
177
304
428
535
619
650
651
650
646
601
507
373
223
95
14
0
22
92
196
321
446
545
597
601
565
498
409
313
225
155
104
79
79
102
144
